Variables=Time[s], probe_u1, probe_v1, probe_w1, probe_u2, probe_v2, probe_w2, probe_u3, probe_v3, probe_w3, probe_u4, probe_v4, probe_w4, probe_u5, probe_v5, probe_w5
0.0, 366.9270739, 0.4040049356, -0.003544699087, 366.9359544, 0.02644136014, 0.000190611386, 366.9357895, 0.002834268423, -6.276669083e-05, 366.9357499, 0.0001595421591, -5.606014204e-06, 366.9357442, 5.947679864e-06, -9.952046185e-08
1e-05, 366.8971344, 1.964488462, -0.01800152597, 366.9372163, 0.2224567893, 0.001362440684, 366.9358895, 0.03293153541, -0.0004308614843, 366.9357936, 0.002739983351, -6.213026343e-05, 366.935749, 0.0001598020654, -2.396406512e-06
2e-05, 366.8700218, 4.263040834, -0.03510981492, 366.939485, 0.8775645455, 0.004560741603, 366.9356947, 0.178294364, -0.001929570167, 366.9358921, 0.02051143207, -0.0003967670082, 366.9357888, 0.001844329974, -1.102010083e-05
3.0000000000000004e-05, 366.8323903, 5.334778671, -0.02953802515, 366.9387584, 2.131008802, 0.009304377509, 366.933559, 0.6088689054, -0.006218083643, 366.9361448, 0.09462036207, -0.00161614714, 366.9359553, 0.01188576165, 9.056083685e-06
4e-05, 366.8632224, 4.251020866, 0.03530804293, 366.9322989, 3.521555332, 0.01458028248, 366.9258615, 1.459216918, -0.01497034422, 366.9362066, 0.312333467, -0.00486321984, 366.9364274, 0.05094104372, 0.0002743624887
5e-05, 366.9582384, 2.09977632, 0.1401483859, 366.9103761, 4.122959915, 0.01444261967, 366.912579, 2.585177475, -0.02727466773, 366.9344259, 0.7823722107, -0.0113532837, 366.9374533, 0.1655689328, 0.001232533571
6.000000000000001e-05, 367.0713403, 0.599628936, 0.2349002034, 366.8911568, 3.505866263, 0.01379280319, 366.8965742, 3.441618441, -0.03873387667, 366.9273891, 1.536377897, -0.02126306275, 366.9389956, 0.4282272881, 0.00369788725
7.000000000000001e-05, 367.1666699, 0.2722837504, 0.269577558, 366.8704504, 2.075596174, 0.02302015803, 366.8784414, 3.507895273, -0.04770740268, 366.9149412, 2.400860319, -0.03430231132, 366.9403024, 0.9017235218, 0.008667151781
8e-05, 367.2382824, 0.4820180851, 0.2379961773, 366.8627338, 0.7991207458, 0.0437879744, 366.8840988, 2.717906499, -0.05364089358, 366.9007708, 2.990340223, -0.04663251934, 366.9402205, 1.566072493, 0.01668086703
9e-05, 367.290621, 0.6116758602, 0.178559205, 366.873302, 0.2658623825, 0.06900014057, 366.8958563, 1.488703033, -0.04782896839, 366.8620957, 2.989328978, -0.05098224916, 366.9403433, 2.246837956, 0.02574109964
0.0001, 367.3160507, 0.5641343238, 0.129081439, 366.8849389, 0.350447788, 0.08645958088, 366.9051599, 0.517883457, -0.03635646423, 366.8297073, 2.382842252, -0.0471357098, 366.9259308, 2.642500838, 0.03218885049
0.00011, 367.298825, 0.4709913223, 0.1046824571, 366.874782, 0.5981192092, 0.0945268758, 366.8895803, 0.144558574, -0.02537114467, 366.786531, 1.428889928, -0.04033591044, 366.8883668, 2.563325731, 0.03135775916
0.00012000000000000002, 367.1835397, 0.4106047634, 0.09851938746, 366.7836937, 0.6972667348, 0.09623537058, 366.7927637, 0.2169949287, -0.01776920126, 366.6808887, 0.5786676441, -0.03353430674, 366.8130977, 2.016131448, 0.01968411642
0.00013000000000000002, 366.841936, 0.3677187396, 0.0963953234, 366.4950147, 0.6159374186, 0.09301836285, 366.5082018, 0.402725536, -0.007849923301, 366.4192883, 0.1117819696, -0.03087819482, 366.6270268, 1.160203358, 0.003334083568
0.00014000000000000001, 366.0516567, 0.2947655979, 0.08909920747, 365.8117303, 0.4122964831, 0.08431582983, 365.8665497, 0.3936351911, 0.003316992915, 365.8437858, -0.06365972437, -0.02830543855, 366.2161875, 0.2890716086, -0.0142467565
0.00015000000000000001, 364.5202128, 0.1471366614, 0.07800855625, 364.4671049, 0.09644736361, 0.07134618835, 364.630769, 0.05983015071, 0.01612858959, 364.7450498, -0.2540194548, -0.02341852777, 365.4170027, -0.4420365712, -0.02655381076
0.00016, 361.9512032, -0.129634933, 0.06770580909, 362.1853529, -0.4076175792, 0.05661838923, 362.5417234, -0.623447575, 0.02850398839, 362.89386, -0.8127269239, -0.01146080816, 364.0407324, -1.131137606, -0.03234278646
0.00017, 358.1581214, -0.5962165735, 0.06129061569, 358.7766882, -1.211331469, 0.04104742091, 359.4092553, -1.688138746, 0.03903069108, 360.1188432, -1.9644976, 0.00976220606, 361.9170881, -2.068005923, -0.03785449218
0.00018, 353.1513537, -1.304283268, 0.05990196472, 354.2367976, -2.399351625, 0.02545204635, 355.2117643, -3.193336657, 0.04894157012, 356.3910819, -3.784118551, 0.04098363975, 358.9772204, -3.555323027, -0.04921939083
0.00019, 347.2491443, -2.279081261, 0.06206152044, 348.8258156, -3.992453576, 0.01005739469, 350.173386, -5.169220954, 0.060337513, 351.8910814, -6.219000468, 0.08158016619, 355.3071876, -5.761621067, -0.06968580833
0.0002, 341.1045231, -3.491090003, 0.0657877929, 343.1038424, -5.922076491, -0.005352774146, 344.7917345, -7.549176495, 0.07513547409, 347.0364068, -9.125017596, 0.1286933819, 351.1811081, -8.655070982, -0.09939290471
0.00021, 335.6755322, -4.833525031, 0.07092005072, 337.9007762, -8.008829811, -0.02130876873, 339.8109038, -10.12777962, 0.09413502981, 342.4591353, -12.2558325, 0.1772162552, 347.0487794, -12.01349718, -0.1364163526
0.00022, 332.0881586, -6.10618466, 0.07645585171, 334.2167922, -9.950593083, -0.03753349344, 336.1237801, -12.5518113, 0.1151771731, 338.9117893, -15.23894372, 0.2233018773, 343.4894967, -15.46062801, -0.174449448
0.00023, 331.3678151, -7.021680161, 0.08086570264, 332.9856414, -11.34513047, -0.052437155, 334.5836796, -14.35651786, 0.1294211622, 337.1220765, -17.58255212, 0.2602339614, 341.1122093, -18.51019431, -0.2085732804
0.00024000000000000003, 333.9820162, -7.295271207, 0.08169017521, 334.7336777, -11.79624717, -0.06190537954, 335.6993954, -15.06542757, 0.1387018572, 337.548086, -18.75915629, 0.2799046372, 340.4007616, -20.62636833, -0.2306963084
0.00025, 339.3946229, -6.789969708, 0.07809220934, 339.1889565, -11.09429783, -0.06190240991, 339.3669854, -14.39272157, 0.1358719499, 340.2183355, -18.38196393, 0.2749770583, 341.5484684, -21.32326579, -0.2402568216
0.00026000000000000003, 346.0548379, -5.616392728, 0.07054547656, 345.1851953, -9.391973737, -0.05351692859, 344.6887362, -12.44914274, 0.1188311097, 344.5449051, -16.4397393, 0.2448435182, 344.3727874, -20.32854701, -0.2327789459
0.00027, 351.9581675, -4.131674451, 0.06200255223, 350.9874343, -7.203219108, -0.03982752182, 350.2072799, -9.799490809, 0.09367751195, 349.4384582, -13.42339849, 0.196021984, 348.2721617, -17.79811169, -0.2059879832
0.00028000000000000003, 355.4586212, -2.789357397, 0.05459383432, 354.9847276, -5.196576838, -0.02661462088, 354.4059752, -7.241608087, 0.06779351958, 353.6072432, -10.20448582, 0.1413413379, 352.3321792, -14.34807778, -0.1669315502
0.00029, 355.8140406, -1.965309742, 0.05089705215, 356.2723524, -3.925165628, -0.01806522828, 356.3039645, -5.479635506, 0.04552377784, 356.0430169, -7.681720415, 0.0989323128, 355.5502126, -10.91756397, -0.127093619
0.00030000000000000003, 353.2016259, -1.835482364, 0.05225472789, 354.7754933, -3.661214367, -0.01459121055, 355.6561468, -4.908286999, 0.03301238646, 356.3187833, -6.455886948, 0.07845433697, 357.2141486, -8.404303069, -0.094882993
0.00031, 348.4336554, -2.359351964, 0.05629301577, 351.0856559, -4.365038414, -0.01670057956, 352.8435688, -5.541858523, 0.03074553773, 354.5488356, -6.695098483, 0.08192426368, 357.059383, -7.343445998, -0.0778289823
0.00032, 342.5376288, -3.348997786, 0.05835999239, 346.1120671, -5.780364817, -0.02503719243, 348.6314041, -7.098423015, 0.03233499346, 351.2876082, -8.165202332, 0.1044795705, 355.2551223, -7.834105259, -0.07664417155
0.00033000000000000005, 336.4379322, -4.561675396, 0.056144756, 340.7731849, -7.558998845, -0.04007687916, 343.8687817, -9.162961244, 0.03815492165, 347.261524, -10.41556339, 0.1410891742, 352.2914322, -9.575775579, -0.08904910177
0.00034, 330.7538108, -5.792175646, 0.05198346243, 335.7651708, -9.383244737, -0.06088128346, 339.2779646, -11.32957054, 0.04543630584, 343.1834552, -12.93414434, 0.1836588918, 348.7906041, -12.05104529, -0.1084524159
0.00035000000000000005, 325.7601884, -6.908874137, 0.04618076282, 331.4755586, -11.0416012, -0.08563183484, 335.3350127, -13.30964545, 0.04961914137, 339.6027584, -15.30187783, 0.2274494992, 345.377958, -14.70452406, -0.1275875498
0.00036, 321.5007141, -7.872583542, 0.0456857067, 328.0179072, -12.44580104, -0.1142445691, 332.2354586, -14.96807124, 0.0493922979, 336.8257413, -17.27992927, 0.2691891337, 342.5369705, -17.0941397, -0.1421278413
0.00037000000000000005, 317.8065129, -8.691052382, 0.04953238017, 325.2692807, -13.59515717, -0.1463696098, 329.9239007, -16.28852028, 0.04780944737, 334.892868, -18.8006788, 0.3090862479, 340.5141417, -18.98398639, -0.1512678611
0.00038, 314.3871592, -9.383093533, 0.05478380372, 322.9426604, -14.52751591, -0.1797806246, 328.1419627, -17.32684373, 0.04606155714, 333.5920888, -19.92810393, 0.3463118703, 339.2834413, -20.34372173, -0.1572992998
0.00039000000000000005, 310.8848617, -9.959070727, 0.05800490462, 320.6607844, -15.2844172, -0.2119819956, 326.5063181, -18.15463374, 0.04553123336, 332.5351875, -20.77997719, 0.3804320698, 338.5646906, -21.29633107, -0.1619982971
0.0004, 306.9571737, -10.42011144, 0.05764017161, 318.0541729, -15.89553005, -0.2421977441, 324.6198272, -18.82832052, 0.04639958369, 331.2859141, -21.4671005, 0.4104873273, 337.9257393, -22.02448677, -0.1672966904
0.00041000000000000005, 302.379272, -10.77677709, 0.05243850842, 314.874016, -16.3825557, -0.2703659216, 322.1969105, -19.38250822, 0.04756061174, 329.5146181, -22.05913288, 0.4338531198, 336.9437733, -22.68452996, -0.1748535942
0.00042, 297.1330261, -11.05909527, 0.04140095114, 311.0696482, -16.76923137, -0.2963678665, 319.1496461, -19.84070011, 0.04842216913, 327.0955596, -22.58880045, 0.4472002207, 335.3540198, -23.35820055, -0.1856043459
0.00043000000000000004, 291.4341572, -11.30367208, 0.02666748201, 306.8056779, -17.08192713, -0.3193129753, 315.6053343, -20.2228197, 0.05013528462, 324.1288424, -23.06728446, 0.449385691, 333.1229984, -24.05329204, -0.1995015721
0.00044, 285.6816266, -11.53498278, 0.01199500818, 302.4113596, -17.33964028, -0.336049748, 311.849013, -20.54720216, 0.05628482418, 320.8806452, -23.50197825, 0.440033518, 330.4323906, -24.73290725, -0.2154239769
0.00045000000000000004, 280.3443401, -11.75483089, 0.000257350392, 298.2724299, -17.54201116, -0.34211596, 308.2212162, -20.82674871, 0.07037617065, 317.681656, -23.90593222, 0.4207978671, 327.5911793, -25.35150687, -0.2320950547
0.00046, 275.8301849, -11.9353096, -0.008716906619, 294.7125849, -17.67011141, -0.3342127036, 305.0147188, -21.06208934, 0.09376175359, 314.8228396, -24.29500193, 0.3947058224, 324.9273849, -25.88884039, -0.2465776268
0.00047000000000000004, 272.3791251, -12.02085603, -0.01983037113, 291.9053678, -17.69464046, -0.3129597113, 302.393783, -21.24584727, 0.126401909, 312.4875768, -24.67068055, 0.3665572919, 322.6887574, -26.34617472, -0.2579484678
0.00048000000000000007, 270.0171438, -11.94802449, -0.0419498048, 289.8319906, -17.58937888, -0.2807829634, 300.3646267, -21.35885063, 0.1601002927, 310.7128598, -25.01574773, 0.3383044984, 320.9913872, -26.72806152, -0.2645037151
0.0004900000000000001, 268.5676366, -11.67549395, -0.0853359722, 288.3097565, -17.34197785, -0.243832124, 298.7925146, -21.37356288, 0.1896034948, 309.4011093, -25.28222112, 0.3117891379, 319.8047266, -27.03114661, -0.2673286935
0.0005, 267.7238143, -11.20214848, -0.1569957947, 287.0607942, -16.94964509, -0.2070244638, 297.4614369, -21.24375409, 0.2091453005, 308.3580076, -25.39093959, 0.2869934213, 318.9772603, -27.22536889, -0.2687120034
0.00051, 267.1454365, -10.55831359, -0.25495375, 285.8087107, -16.4084959, -0.1700657127, 296.1476724, -20.90332425, 0.2165436451, 307.3530341, -25.24570282, 0.2626741693, 318.2902909, -27.26269983, -0.2712795503
0.0005200000000000001, 266.5583384, -9.799480122, -0.3658829405, 284.3727253, -15.71092336, -0.1331302041, 294.6927918, -20.28330648, 0.2125074189, 306.1849728, -24.77217867, 0.236364518, 317.5251693, -27.09771476, -0.2769451268
0.0005300000000000001, 265.8247766, -8.993782341, -0.468840681, 282.7212063, -14.85683077, -0.09372790437, 293.0447143, -19.34393497, 0.2014154236, 304.7300711, -23.94510964, 0.2087014761, 316.5222551, -26.70416658, -0.2868424163
0.00054, 264.9656703, -8.21012506, -0.5424608207, 280.9695707, -13.86519391, -0.05035736286, 291.2586895, -18.10487425, 0.1880129949, 302.9624131, -22.8037443, 0.1842371166, 315.2060126, -26.08883243, -0.3014112259
0.00055, 264.1310425, -7.509341666, -0.5704259505, 279.3253821, -12.78850351, -0.005920070778, 289.4586943, -16.66330744, 0.1755541431, 300.9358291, -21.45051518, 0.1697744073, 313.5808451, -25.28048291, -0.3184871913
0.0005600000000000001, 263.5195965, -6.938452357, -0.5497438938, 278.0047274, -11.72198686, 0.03052634351, 287.7831924, -15.18246346, 0.1647124911, 298.7509016, -20.0325013, 0.1716417115, 311.7027602, -24.33131515, -0.3314926393
0.0005700000000000001, 263.2796067, -6.54738098, -0.4818700087, 277.1527534, -10.7940211, 0.04716492468, 286.3389583, -13.85088138, 0.1509444603, 296.5205247, -18.71958464, 0.1930087977, 309.6447365, -23.30725384, -0.3346490649
0.00058, 263.4322122, -6.409047172, -0.3808376475, 276.8077891, -10.14726119, 0.02905476482, 285.1750813, -12.85067419, 0.1302892321, 294.3520816, -17.66814944, 0.2315100586, 307.4811787, -22.27896292, -0.3251496962
0.00059, 263.8439444, -6.618151249, -0.2742724027, 276.8999878, -9.922842386, -0.03301165724, 284.2872001, -12.32801743, 0.1044779186, 292.3346617, -16.99476345, 0.2816042638, 305.2872443, -21.32153708, -0.3063504592
0.0006000000000000001, 264.2830017, -7.295022245, -0.1887313068, 277.2803687, -10.24100606, -0.139748209, 283.6258944, -12.3890483, 0.08002338449, 290.5344802, -16.78058081, 0.3329595067, 303.1438068, -20.5164861, -0.2868426322
0.0006100000000000001, 264.5067089, -8.5600991, -0.1383111307, 277.7763117, -11.20307757, -0.2788865938, 283.1339544, -13.09504266, 0.06585065994, 288.9957264, -17.08037139, 0.3738423593, 301.1344292, -19.94877015, -0.2739711951
0.00062, 264.3244133, -10.46189119, -0.1234009517, 278.2245314, -12.88009825, -0.4205620376, 282.7578606, -14.50985151, 0.06788438397, 287.7579927, -17.93815948, 0.3940601725, 299.3335277, -19.70649584, -0.2704398965
0.00063, 263.6365618, -12.97157074, -0.140112774, 278.4926153, -15.31348757, -0.527644898, 282.4637191, -16.67570468, 0.09289078306, 286.8499425, -19.35390773, 0.3924199975, 297.7907639, -19.86751192, -0.2725787666
0.00064, 262.4022587, -16.00967663, -0.1683952979, 278.4854216, -18.5293536, -0.5701286951, 282.2509785, -19.60798149, 0.1387338781, 286.3076436, -21.34539039, 0.3865745235, 296.5492619, -20.47555341, -0.2704767394
0.0006500000000000001, 260.5711976, -19.50288238, -0.1737278949, 278.1588991, -22.5316278, -0.5368927482, 282.1694601, -23.27008619, 0.1943867079, 286.1705412, -23.86421284, 0.387584675, 295.6363274, -21.52818281, -0.2523408642
0.0006600000000000001, 258.0661928, -23.40023769, -0.1246877464, 277.5362401, -27.24377217, -0.4446608126, 282.3100274, -27.53746087, 0.2440314183, 286.4792468, -26.8064088, 0.4092211165, 295.0689454, -22.99044667, -0.2099453819
0.00067, 254.7891067, -27.66570532, -0.007026887976, 276.7186891, -32.46613244, -0.3369109752, 282.7510351, -32.15998515, 0.277038737, 287.2285884, -30.02165688, 0.4642820936, 294.8562211, -24.79895104, -0.1468219423
0.00068, 250.7054288, -32.22069956, 0.1651014993, 275.8847689, -37.84449587, -0.2646228707, 283.507302, -36.78157746, 0.2930117473, 288.3491385, -33.32850349, 0.5503319194, 294.9875653, -26.85760851, -0.0833239426
0.0006900000000000001, 245.9466093, -36.90209928, 0.3510639183, 275.2430408, -42.89015362, -0.2625449889, 284.5269426, -40.99554736, 0.2952490433, 289.7063921, -36.51356597, 0.6465211716, 295.4347186, -29.05176175, -0.04234870059
0.0007000000000000001, 240.8946593, -41.43006068, 0.5039998161, 274.9950145, -47.08747764, -0.3349833832, 285.6579202, -44.41668591, 0.2888049621, 291.1378751, -39.39436881, 0.7257640116, 296.1366688, -31.284092, -0.04753203892
0.00071, 236.1291354, -45.51332782, 0.5907913749, 275.2523024, -50.0624116, -0.4616920506, 286.6982079, -46.79760314, 0.2748697607, 292.470161, -41.80005676, 0.7642194625, 297.0237829, -33.45606587, -0.1021586239
0.00072, 232.3005729, -48.9177741, 0.6026335504, 276.0176519, -51.7257006, -0.6062946357, 287.4709652, -48.12092278, 0.2573953452, 293.5681003, -43.61748194, 0.755431681, 298.0137504, -35.4700664, -0.1869911686
0.0007300000000000001, 229.9328236, -51.5103174, 0.5567189689, 277.1627709, -52.3300049, -0.737075887, 287.9022149, -48.63403784, 0.2360878784, 294.3811836, -44.84943572, 0.7143124994, 299.011714, -37.24536373, -0.2730612895
0.0007400000000000001, 229.2298881, -53.25325342, 0.4758069812, 278.4321479, -52.36810819, -0.833203372, 288.0489079, -48.75948878, 0.2212054243, 294.9647535, -45.61739933, 0.6735875718, 299.9394411, -38.71939703, -0.3276316749
0.00075, 229.9701379, -54.22374192, 0.37086083, 279.5287, -52.39141372, -0.8859601322, 288.0846993, -48.94327877, 0.2272872101, 295.4410394, -46.10314977, 0.6632775568, 300.7572341, -39.86523493, -0.3329943349
0.00076, 231.5190121, -54.55574644, 0.2386208014, 280.1855897, -52.82361671, -0.8919367828, 288.20927, -49.49999774, 0.2633271585, 295.9488641, -46.49666524, 0.6937015566, 301.4608686, -40.69726872, -0.2950164671
0.0007700000000000001, 232.927918, -54.43871842, 0.07369255614, 280.2194903, -53.82311519, -0.8468685355, 288.5480506, -50.54224262, 0.325201739, 296.5755425, -46.97369373, 0.7554242684, 302.0603497, -41.27852583, -0.2382031126
0.0007800000000000001, 233.1672662, -54.10792641, -0.1094703895, 279.5449059, -55.3276568, -0.7529458458, 289.0749021, -52.02752205, 0.3966978616, 297.3060092, -47.68420167, 0.8282065659, 302.5494756, -41.73185139, -0.1921345547
0.00079, 231.3965342, -53.82629243, -0.2680436007, 278.1760919, -57.20551757, -0.6262804953, 289.6108772, -53.880906, 0.4603384841, 298.0299197, -48.75871444, 0.8937792709, 302.8811493, -42.23574549, -0.176803607
0.0008, 227.1933225, -53.88236111, -0.3338861616, 276.1891032, -59.38380821, -0.4924861033, 289.9185254, -56.08095251, 0.50373501, 298.5926995, -50.30643871, 0.9428646298, 302.979281, -42.99916165, -0.1943391078
0.0008100000000000001, 220.6385217, -54.48457522, -0.258030694, 273.6871397, -61.88819138, -0.382714654, 289.8718056, -58.68210913, 0.52965824, 298.9151254, -52.36413994, 0.9789969153, 302.7779781, -44.18133131, -0.2335845169
0.0008200000000000001, 212.2599902, -55.76053841, -0.02762994987, 270.8349539, -64.82657039, -0.3259750141, 289.5387286, -61.73927445, 0.5457632662, 299.0469082, -54.88049601, 1.01167019, 302.2867448, -45.83914595, -0.2841040298
0.0008300000000000001, 202.8600218, -57.75255226, 0.3148394909, 267.8842507, -68.2851206, -0.330895764, 289.1863086, -65.2227989, 0.5633474449, 299.1908169, -57.70343428, 1.050838241, 301.6223865, -47.87310006, -0.3454574571
0.00084, 193.2838438, -60.39408183, 0.6857631197, 265.1607852, -72.23171588, -0.3852872923, 289.1847983, -68.99255995, 0.5868066469, 299.6427727, -60.61744559, 1.078249821, 301.0021832, -50.0501906, -0.432430895
0.0008500000000000001, 184.2322391, -63.51278593, 0.9920527052, 263.0167459, -76.48659203, -0.4678070635, 289.856753, -72.82445397, 0.611702296, 300.6388043, -63.40286911, 1.0664857, 300.6767526, -52.09122538, -0.5664601494
0.0008600000000000001, 176.1254563, -66.82836718, 1.163910254, 261.7445378, -80.74729628, -0.5535084889, 291.3517934, -76.45473335, 0.6287212453, 302.3103265, -65.90117677, 1.000835891, 300.8597924, -53.80105731, -0.7399153366
0.0008700000000000001, 169.0766233, -69.98570922, 1.180307062, 261.4863908, -84.64330479, -0.6287040939, 293.6235195, -79.63925789, 0.6416215718, 304.6486569, -68.02862937, 0.8996495424, 301.6619123, -55.11868387, -0.9124489881
0.00088, 162.9584441, -72.60977496, 1.070712363, 262.2112112, -87.82241312, -0.6953128894, 296.5080802, -82.16438655, 0.6530627462, 307.537966, -69.72453621, 0.8012971686, 303.0572821, -56.09925623, -1.016538045
